#U_C[V],#t[ms]
0.60,0.00
0.50,0.10
0.40,0.20
0.30,0.30
0.20,0.40
0.10,0.50
0.04,0.60
0.00,0.70
-0.04,0.80
-0.12,1.00
-0.20,1.20
-0.24,1.40
-0.28,1.60
-0.32,1.80
-0.34,2.00
-0.36,2.30
-0.38,2.70
-0.40,4.00
-0.40,4.50